hzWN
-6.061830309
-6.50043958
-6.182159554
-6.538448062
-6.46948927
-6.147773465
-6.247533726
-6.525495739
-6.198975847
-6.075489578
-6.063770222
-6.20074002
-6.253346769
-6.242117299
-6.042637487
-6.516401344
-6.431751449
-6.634329148
-6.258800247
-6.748975071
-6.244511977
-6.454646601
-6.753359522
-6.266387082
-6.700296095
-6.778342799
-6.312500909
-6.34693159
-6.547308828
-6.753679465
-6.712388633
-6.778336307
-6.611582565
-6.768452569
-6.831974767
-6.376244367
-6.209143159
-6.422660523
-6.547618283
-6.577279795
-6.538970582
-6.822366539
-6.761890436
-6.527579545
-6.442599285
-6.36809517
-6.677073113
-6.730277674
-6.45665582
-6.505454843
-6.749813568
-6.663870204
-6.270328553
-6.556348506
-6.351427444
-6.482629392
-6.640814182
-6.145582615
-6.155761724
-5.982452385
-5.859266291
-5.588278469
-5.771002512
-5.551037859
-5.734803577
-5.416285649
-5.475640835
-5.310870028
-5.273619531
-5.254143884
-5.120215588
-5.279967673
-5.579352666
-5.8117896
-6.381359625
-7.209739501
-7.595236115
-7.281997511
-7.719445626
-7.263795864
-7.42427663
-7.870966233
-7.663303697
-7.431721242
-7.849710817
-7.313739161
-7.404301948
-7.545454077
-7.396496212
-7.398665453
-7.132453361
-7.323376582
-7.058369834
-7.354104445
-7.168437808
-7.108673797
-7.071207459
-6.850222682
-6.796219675
-6.690790702
-6.353011319
-6.560851235
-6.350231547
-6.408660944
-6.243053257
-6.39055164
-6.505691765
-6.564640633
-6.378397843
-6.473718329
-6.258862465
-6.177179906
-6.242149164
-6.586965524
-6.388205572
-6.414837152
-6.73314694
-6.659469635
-6.548142671
-6.523785378
-6.708874268
-6.228275109
-6.673095003
-6.520796987
-6.538666837
-6.356263259
-6.637877113
-6.702159942
-6.438808557
-6.541048038
-6.702152256
-6.814323432
-6.681118614
-6.535634807
-6.432652515
-6.432450621
-6.42658489
-6.360305838
-6.37129198
-6.619217905
-6.521335683
-6.448331192
-6.737468788
-6.701276272
-6.362700075
-6.501835635
-6.727630982
-6.574190712
-6.433378183
-6.314514784
-6.651019874
-6.61829984
-6.992168922
-6.591958152
-6.647192861
-6.719011207
-7.010707913
-6.807207548
-6.90444138
-6.864558549
-6.647935225
-6.428379303
-6.920001093
-6.323906836
-6.687146441
-6.842552479
-6.630368997
-6.969568926
-6.87437093
-6.67790661
-6.546851923
-6.865694542
-6.351532521
-6.227644318
-6.63920742
-6.240476474
-6.24695154
-6.150538905
-6.475171978
-6.757651806
-6.51138827
-6.473249192
-6.644307559
-6.384332159
-6.062331106
-6.409624434
-6.427351511
-6.056702001
-6.416246318
-6.466995282
-6.391842677
-6.272757384
-6.31605989
-6.735523359
-6.203511344
-6.549905082
-6.476114341
-6.070187792
-6.354479132
-6.109287678
-6.615192081
-6.440255775
-6.405894852
-6.494000705
-6.283685887
-6.515919438
-6.328527036
-6.563055221
-6.420841451
-6.140318585
-6.235195541
-6.550749346
-6.264386144
-6.245159169
-6.259819965
-6.609612426
-6.48004419
-6.511330066
-6.58203131
-6.598696803
-6.388652472
-6.114748401
-6.525239864
-6.334843863
-6.599695289
-6.5164466
-6.36467803
-6.614819058
-6.108098571
-6.600426424
-6.12263748
-6.577627918
-6.318001849
-6.715561762
-6.579424502
-6.221269639
-6.518909399
-6.146029068
-6.03367059
-6.520398213
-6.197817392
-6.740551391
-6.76859999
-6.676130632
-6.112125794
-6.155003391
-6.165756442
-6.523805017
-6.231292933
-6.607265789
-6.54133059
-6.432034674
-6.149127542
-6.184672503
-6.637733614
-6.276205764
-6.234909681
-6.431113395
-6.135080913
-6.347183795
-6.430007206
-6.280388443
-6.34685777
-6.128678909
-6.286312777
-6.658877436
-6.552871367
-6.609512342
-6.164372614
-6.28317289
-6.090733109
-6.197111239
-6.234607439
-6.343586332
-6.489962301
-6.538723843
-6.394813495
-6.165802176
-6.572536277
-6.182362573
-6.394719589
-6.127699715
-6.09371234
-6.153774097
-6.484415967
-6.278016428
-6.231829766
-6.227090899
-6.246142504
-6.260912151
-6.072137802
-5.865847458
-6.016116457
-6.348331618
-6.068894069
-6.287537566
-5.956551461
-6.53710697
-5.984560574
-6.212069567
-6.056730796
-5.968799496
-5.992839259
-6.462895277
-6.258514164
-5.915676215
-5.93757327
-6.145369894
-6.345060105
-6.04166866
-5.988782847
-6.380490772
-6.060241269
-6.12879758
-6.352727361
-5.97938831
-6.128973229
-6.58653918
-6.612128739
-6.290819082
-6.690679774
-6.664355436
-6.768405764
-6.431920068
-6.645579948
-6.232842432
-6.501508471
-6.434508986
-6.63672106
-6.640719378
-6.489362521
-6.255974362
-6.274081952
-6.726855519
-6.673937802
-6.634075864
-6.38164252
-6.179261628
-6.675519509
-6.463283443
-6.326812307
-6.502865385
-6.448840609
-6.04219834
-6.035832973
-6.204900631
-6.473938864
-6.453570743
-6.472736107
-6.389290668
-6.156096559
-6.228512378
-6.270015593
-6.170969157
-6.208701713
-6.484789472
-6.561645229
-6.354565895
-6.397315433
-6.079743492
-6.068946874
-5.959426761
-5.87133057
-5.656581442
-5.91277952
-5.922475956
-5.864587135
-5.401835261
-5.418596522
-5.309303744
-4.746877898
-4.751376693
-4.946443843
-5.642516898
-5.88514468
-6.735816652
-7.047576234
-7.270223661
-7.108466777
-7.283495768
-7.523425874
-7.115095388
-7.387659193
-7.541172125
-7.783627997
-7.324863639
-7.802305848
-7.339183791
-7.342785847
-7.251895802
-7.362086279
-7.635321243
-7.341790362
-7.330875404
-7.051219491
-7.349184718
-7.343193059
-7.466613234
-7.125049717
-7.061067475
-6.672121218
-6.67007334
-6.780164955
-6.733732805
-6.71731145
-6.679093564
-6.720002751
-6.712473867
-6.885827485
-6.670667259
-6.740345388
-6.368348299
-6.63405145
-6.428838414
-6.686634719
-6.687422718
-6.278542477
-6.345565978
-6.273250003
-6.446011615
-6.438500725
-6.385506205
-6.268927738
-6.406685776
-6.359179431
-6.472808199
-6.317735368
-6.316722496
-6.755031945
-6.428289273
-6.218124668
-6.308935386
-6.412913263
-6.267141051
-6.415846186
-6.756757862
-6.563788216
-6.440713525
-6.869204493
-6.444057897
-6.374338973
-6.842012422
-6.868408415
-6.383569053
-6.741491919
-6.825784186
-6.932994503
-7.048142761
-6.938115492
-6.673109588
-6.752235085
-6.907818728
-6.59011901
-6.825181194
-6.412055833
-6.844821422
-6.683644286
-7.067035053
-6.701631473
-6.926118634
-6.431650874
-6.88538723
-6.424148821
-6.962274768
-6.953509047
-6.646736672
-6.517599348
-6.934842982
-6.443370414
-6.702542254
-6.475540185
-6.721668324
-6.788419465
-6.562890378
-6.516963044
-6.38551358
-6.605928084
-6.306998243
-6.701610293
-6.346204988
-6.267888448
-6.439096086
-6.348762255
-6.229126393
-6.261486027
-6.111488554
-6.388837857
-6.332220779
-6.610379444
-6.406094007
-6.130591356
-6.418362935
-6.243998712
-6.263414814
-6.368282994
-6.313088026
-6.028211884
-6.237578304
-6.567268284
-6.654916115
-6.625950205
-6.55517334
-6.460890605
-6.323349518
-6.087908063
-6.40454696
-6.213342406
-6.442378497
-6.451249669
-6.114444587
-6.346381513
-6.255287092
-6.13556477
-6.392154585
-6.012458174
-6.41516668
-6.24330607
-6.628112448
-6.089737921
-6.498534763
-6.445611075
-6.264888798
-6.643894213
-6.628485679
-6.602526926
-6.404877274
-6.134779171
-6.286900557
-6.143423756
-6.458032613
-6.228861638
-6.084701186
-6.590596914
-6.075848374
-6.011341151
-6.351352178
-6.512198703
-6.173314855
-6.413659301
-6.634402636
-6.606984057
-6.387453905
-6.136566408
-6.275647832
-5.998101404
-6.232353718
-6.424390343
-6.304221472
-6.510353926
-6.288756061
-6.107088386
-6.592909376
-6.644671448
-6.26911676
-6.511301153
-6.44238746
-6.51299002
-6.273948009
-6.325635224
-6.062188171
-6.087526665
-6.497654956
-6.269454852
-6.464897271
-6.223270454
-6.271003772
-6.395375822
-5.980756958
-6.394600146
-6.398936842
-5.984531178
-5.986144004
-6.07952716
-6.295401095
-6.1753939
-6.405953724
-6.214719492
-6.441356994
-6.541577236
-6.610405924
-6.162189333
-6.530962191
-6.106037684
-6.073690852
-6.297175005
-6.492392275
-6.389652621
-5.979506368
-6.335719665
-6.153885873
-6.554453964
-6.32435411
-6.402308378
-6.387396732
-6.287703267
-6.228897401
-6.264151898
-6.163727579
-5.994597099
-6.216751192
-6.254169203
-6.099476978
-5.942712248
-5.882825996
-6.213677889
-6.321015445
-6.177380453
-6.234583997
-6.17093108
-6.188639188
-6.065226905
-5.912191657
-6.142067148
-6.07296139
-6.052122143
-6.005411645
-5.859904164
-6.252856135
-6.128406517
-6.387000978
-6.158392117
-6.169472914
-6.055137702
-6.193377121
-6.082171094
-6.105996384
-6.438154257
-6.018112063
-6.488935374
-6.049126357
-6.153225909
-6.274115849
-6.496831179
-6.412173908
-6.153782694
-6.300280128
-6.544028325
-6.539294195
-6.49079865
-6.346492948
-6.125853367
-6.341976611
-6.630348364
-6.369307303
-6.630963924
-6.418932958
-6.566620349
-6.155074717
-6.498274437
-6.484229189
-6.256727635
-6.46139997
-6.262393348
-6.42083967
-6.278108788
-6.078998683
-6.571300682
-6.406731201
-6.658714298
-6.609339439
-6.72376179
-6.654960519
-6.367045648
-6.295119697
-6.459858713
-6.111631808
-5.615526651
-6.006026628
-5.929178455
-5.579933527
-5.937845939
-5.597853297
-5.700768965
-5.277512263
-4.884572374
-4.989256305
-4.84380886
-5.275076352
-5.577422441
-6.183346815
-6.3398364
-7.057872239
-6.895980751
-6.906259246
-7.409146187
-7.116228523
-7.715968789
-7.660435516
-7.540199555
-7.576987519
-7.902149825
-7.827259347
-7.495189116
-7.846660581
-7.696024351
-7.432612048
-7.312095607
-7.232508812
-7.114802707
-7.553617312
-7.542972329
-7.088344153
-6.850371903
-6.734885316
-6.88182063
-6.663006654
-6.665058035
-6.66607108
-6.70427263
-6.43889495
-6.629395011
-6.876877095
-6.629521987
-6.287387813
-6.691595335
-6.702774664
-6.649144226
-6.601632065
-6.243959466
-6.687099341
-6.265483675
-6.7856459
-6.449515418
-6.901598782
-6.341351156
-6.347192226
-6.47483794
-6.694870526
-6.511611112
-6.41976279
-6.43999426
-6.162037612
-6.229846325
-6.805941503
-6.636434317
-6.683860695
-6.732733425
-6.556447248
-6.467608103
-6.43718868
-6.397466808
-6.765133805
-6.930199953
-6.811552071
-6.737893373
-6.557096544
-6.731505381
-6.41882598
-6.749732794
-6.63121579
-6.803367949
-6.388195059
-6.7573457
-6.547091598
-6.558656588
-6.67817395
-6.75610219
-6.842812855
-6.916385796
-7.00773232
-6.771651186
-7.002104364
-6.781275081
-6.910664196
-6.576264065
-6.36234603
-6.417267263
-6.436724638
-6.975739449
-7.034508966
-6.511298281
-6.546237842
-6.551977181
-6.396612206
-6.846437284
-6.790901685
-6.684646145
-6.524903728
-6.511479868
-6.394869921
-6.602695231
-6.787409294
-6.62498013
-6.741259905
-6.678982219
-6.18926895
-6.669001478
-6.71888428
-6.633726628
-6.34149747
-6.393333762
-6.370144683
-6.019426922
-6.32663619
-6.174963786
-6.169073716
-6.508035539
-6.195012572
-6.103762985
-6.282626306
-6.470557115
-6.227830404
-6.177494873
-6.648057489
-6.308041973
-6.115408692
-6.1045337
-6.487110203
-6.563673271
-6.62473611
-6.474706708
-6.38340669
-6.198616117
-6.643335318
-6.660750898
-6.495501287
-6.509147655
-6.138604113
-6.021534025
-6.383777991
-6.265287039
-6.299298489
-6.069355373
-6.282457656
-6.242125675
-6.298038287
-6.56841762
-6.496505609
-6.296391779
-6.314364998
-6.732485716
-6.351819372
-6.475836367
-6.562550507
-6.158187388
-6.326236052
-6.174476437
-6.263492159
-6.230403741
-6.664285238
-6.23689403
-6.463749028
-6.437724795
-6.470525641
-6.388466299
-6.593196663
-6.368505291
-6.096016312
-6.347020928
-6.498015033
-6.117536624
-6.235940999
-6.547052319
-6.157699079
-6.361392526
-6.384922295
-6.17501323
-6.186124784
-6.345440413
-6.130214546
-6.06382018
-6.342384508
-6.290808606
-6.169875868
-6.135397997
-6.663600269
-6.189269896
-6.328016348
-6.355074495
-6.556133375
-6.497933819
-6.155568235
-6.436972305
-6.348850729
-6.28781144
-6.465850011
-5.988375042
-6.161179146
-6.265321856
-6.621858649
-6.447191763
-6.332490309
-6.157331571
-6.538735969
-6.098078772
-6.224220942
-6.539911406
-6.530277589
-6.571824185
-6.400711664
-6.168381424
-6.530250374
-6.46699385
-6.493285322
-6.033249314
-6.108433259
-6.22755343
-6.486414691
-6.295169141
-5.997350394
-5.995046527
-6.220782763
-6.191441107
-5.964065755
-6.371361096
-6.158060052
-6.274935482
-6.258763125
-6.090940789
-5.961844739
-6.229290622
-6.162646325
-6.413162065
-6.401832373
-6.520249759
-6.284604608
-6.17930616
-5.929017184
-6.158678095
-6.295399765
-6.218069553
-5.850591653
-6.367917886
-6.177458542
-6.390535762
-6.661807035
-6.501262664
-6.459209064
-6.601684884
-6.025567377
-6.41291725
-6.341685974
-6.132685212
-6.57806946
-6.055292365
-6.197016641
-6.367488801
-6.281244029
-6.422846027
-6.552147709
-6.26587235
-6.692081891
-6.702668523
-6.444249135
-6.305359578
-6.327079317
-6.253953788
-6.503011101
-6.20914242
-6.076785169
-6.300935301
-6.443507978
-6.192510255
-6.27346284
-6.497581325
-6.446820457
-6.47806953
-6.089028239
-6.340021391
-6.460982792
-6.117836429
-6.613072751
-6.718186485
-6.417929273
-6.449302366
-6.256582351
-6.490085958
-6.633090635
-6.353956809
-6.416126632
-6.187679145
-5.653099417
-5.596835846
-5.840315766
-5.832416702
-5.539979071
-5.719058794
-5.763760261
-5.427815443
-5.484363287
-5.123757868
-5.221692885
-5.059509917
-5.40145755
-5.588757961
-6.031663353
-6.724389581
-6.730289506
-6.824561355
-7.129637032
-7.702761956
-7.794632367
-7.537976503
-7.49594297
-7.71405841
-7.149072196
-7.669302241
-7.572281475
-7.336449527
-7.404360912
-7.431773564
-7.484463339
-7.870693583
-7.462000726
-7.47357543
-7.461987472
-6.929552399
-7.215013253
-6.853279887
-6.980321022
-6.635968012
-6.556926031
-6.570210806
-6.744450038
-6.63530176
-6.283668024
-6.288297405
-6.551179951
-6.574645339
-6.287742985
-6.290603721
-6.865869153
-6.800679688
-6.73323858
-6.728718746
-6.70172982
-6.279196405
-6.434665277
-6.694303438
-6.515565642
-6.818990267
-6.425922076
-6.381596463
-6.584979927
-6.843827856
-6.512046822
-6.384635045
-6.279012957
-6.42333773
-6.511862776
-6.570010985
-6.718841901
-6.805775718
-6.833198664
-6.572585595
-6.815458479
-6.383786291
-6.819329352
-6.621508808
-6.377564159
-6.50561829
-6.615593232
-6.541014287
-6.467807489
-6.685638096
-6.889931714
-6.591810733
-6.7840711
-6.974313403
-6.431488651
-6.975459195
-6.516924821
-6.932052048
-6.944680164
-6.946545711
-6.50706626
-6.930645133
-6.857520392
-6.594017002
-6.819966335
-6.743090131
-6.585788385
-7.056262182
-6.802351133
-6.710233424
-6.511119455
-6.652437863
-6.965893731
-6.754555393
-6.60662628
-6.771817813
-6.541950491
-6.389215815
-6.623431454
-6.280739756
-6.775620762
-6.234268516
-6.213178637
-6.490569054
-6.690377036
-6.356168866
-6.594116894
-6.166279947
-6.283284863
-6.439463842
-6.203210496
-6.275428399
-6.316883918
-6.664623398
-6.425099288
-6.583837275
-6.210651422
-6.632090569
-6.246011427
-6.242845219
-6.475741657
-6.4486138
-6.317993746
-6.360222574
-6.523388254
-6.61974291
-6.682216964
-6.450478513
-6.214848714
-6.565741507
-6.472266503
-6.152585593
-6.267004139
-6.405298847
-6.1059063
-6.366521977
-6.449756323
-6.626909234
-6.481021404
-6.473900589
-6.221846822
-6.212233187
-6.361507846
-6.365030334
-6.436744719
-6.646389426
-6.372029214
-6.392272633
-6.442180749
-6.259844769
-6.511932935
-6.19116221
-6.274283539
-6.191059925
-6.265339469
-6.141138563
-6.351713529
-6.709779268
-6.183452498
-6.378741809
-6.206148544
-6.470970737
-6.448644058
-6.571289919
-6.674184191
-6.259921346
-6.746314501
-6.347591565
-6.390612375
-6.388675688
-6.183327153
-6.326510424
-6.495623094
-6.502215499
-6.467626657
-6.2313772
-6.343569833
-6.532731108
-6.69644569
-6.647212936
-6.121119231
-6.179360471
-6.590790001
-6.684877575
-6.70873029
-6.708714559
-6.317117692
-6.718759022
-6.499405927
-6.669564224
-6.208205584
-6.322685184
-6.513523487
-6.265798435
-6.454022793
-6.437048735
-6.399953322
-6.517151827
-6.373102377
-6.388582889
-6.362129239
-6.329146004
-6.683820252
-6.650924497
-6.366390459
-6.632872722
-6.412617811
-6.158461947
-6.175223974
-6.50517077
-6.45488265
-6.628613777
-6.382296802
-6.614788314
-6.463588994
-6.197000419
-6.511036062
-6.238813186
-6.484364861
-6.572284688
-6.489164207
-6.302171116
-6.114485669
-6.279682155
-6.209030261
-6.09838956
-6.075148711
-5.991316641
-6.394552163
-6.488586144
-6.465933762
-6.569809029
-6.065764385
-6.057932418
-6.496608055
-6.367202703
-6.151112337
-6.422957609
-6.031220397
-6.318324783
-6.077833585
-6.445958799
-6.250881839
-6.468717666
-6.09510754
-6.517310136
-6.106902328
-6.395664814
-6.214680676
-6.4936637
-6.267698051
-6.37023284
-6.65494134
-6.105089282
-6.656400132
-6.653818271
-6.692318818
-6.401803264
-6.156909133
-6.659441398
-6.320915971
-6.183354605
-6.480318351
-6.2096175
-6.414645049
-6.728764856
-6.668188294
-6.726936885
-6.67968008
-6.598405646
-6.39463771
-6.461970182
-6.389511658
-6.466617216
-6.751502022
-6.506191088
-6.487335242
-6.6244367
-6.627568205
-6.663677581
-6.265307525
-6.610416215
-6.735145085
-6.315563216
-6.412078907
-6.368911865
-6.312284991
-6.131604039
-5.924505827
-5.886241599
-5.852582209
-5.81689598
-5.607290085
-5.789465067
-5.398519321
-5.81074789
-5.324558491
-5.40693396
-5.420427499
-5.143633126
-5.235329576
-4.875694408
-5.152362882
-5.245756927
-5.724611025
-6.404251849
-6.885661402
-6.75254176
-7.306608909
-7.443604682
-7.532373663
-7.701654727
-7.499222867
-7.252813193
-7.248739626
-7.73664732
-7.298118315
-7.837745459
-7.269890157
-7.237239353
-7.899922173
-7.522590935
-7.861041724
-7.361109087
-7.62647734
-7.382546907
-7.562772589
-7.128232451
-6.729570995
-6.915288003
-6.80670776
-6.752868623
-6.33989174
-6.388642872
-6.588516552
-6.489065741
-6.410164339
-6.453375286
-6.418889044
-6.610007708
-6.316912396
-6.547957503
-6.486813935
-6.361225753
-6.310699297
-6.327418302
-6.709950793
-6.746017678
-6.637128564
-6.40463532
-6.665544754
-6.320694393
-6.689292201
-6.3103867
-6.221119359
-6.570827777
-6.770974756
-6.315778677
-6.776353682
-6.492238209
-6.597044958
-6.771377112
-6.570709239
-6.372704506
-6.587381458
-6.444962038
-6.761223062
-6.790433809
-6.528930594
-6.602230045
-6.811172557
-6.546335916
-6.888207626
-6.55958092
-6.971971061
-6.990339025
-6.986677564
-6.618340966
-6.823034531
-6.562936136
-6.753122537
-6.466993191
-6.708327923
-6.597334684
-6.501577362
-6.964756718
-6.469736384
-6.822947967
-6.592509062
-6.851382146
-7.028997726
-6.573240348
-7.008438193
-6.985358462
-6.479815074
-6.949002413
-6.708080646
-6.586445965
-6.480024058
-6.448643055
-6.372855157
-6.733823431
-6.583941707
-6.389102968
-6.699492782
-6.79632608
-6.771658964
-6.27011708
-6.194894599
-6.493248025
-6.372718441
-6.140105116
-6.412066726
-6.493702811
-6.337829222
-6.179105433
-6.265055463
-6.086372024
-6.306347365
-6.638832379
-6.055837152
-6.456953549
-6.347839537
-6.171166889
-6.114510702
-6.269521499
-6.3410841
-6.224123743
-6.464516624
-6.058589567
-6.30567667
-6.247844742
-6.15231401
-6.031443755
-6.186392357
-6.484058386
-6.527717696
-6.417855925
-6.294073588
-6.280062768
-6.515034426
-6.300214905
-6.511599496
-6.412610808
-6.42135118
-6.301062443
-6.158422075
-6.193179567
-6.453076322
-6.53349236
-6.549204676
-6.099515403
-6.437603109
-6.133415929
-6.166039527
-6.050321832
-6.434528136
-6.076764206
-6.026588211
-6.386046411
-6.134102333
-6.006478016
-6.151405836
-6.368404647
-6.186901939
-6.438865123
-6.289774027
-6.342482596
-6.213675257
-6.294498859
-6.400786388
-6.40143769
-6.118071072
-6.566983462
-6.512326573
-6.416245771
-6.341102708
-6.321777744
-6.560795654
-6.165936117
-6.158740933
-6.513383103
-6.532696605
-6.38057452
-6.009819725
-6.058012711
-6.218810715
-6.03068359
-6.083363231
-6.470874015
-6.215954011
-6.453146
-6.495098699
-6.014870773
-6.072407993
-6.255521687
-6.278536474
-6.391291163
-5.979475626
-6.47712648
-6.192149878
-6.398140333
-6.048811203
-6.506571348
-6.597716622
-6.547857918
-6.097510432
-6.377117362
-6.047195177
-6.397268921
-6.295382366
-6.321779172
-6.316646974
-6.286957597
-6.109452906
-6.313849587
-6.156565624
-6.146688512
-5.954196829
-5.945858103
-5.906628626
-6.217525394
-6.096885875
-6.206990826
-6.254736525
-6.145924838
-6.407352809
-6.068439884
-5.996964581
-6.302951387
-6.228715845
-5.887302492
-5.820906923
-6.123517262
-6.349782608
-5.902149132
-6.064711114
-5.929017075
-5.88542225
-6.0420533
-5.979565277
-5.967205076
-6.222560604
-5.976783969
-6.264766013
-6.312227829
-6.229440136
-5.987050693
-6.300563788
-6.364718463
-5.966114566
-6.286284973
-6.460445028
-6.283462491
-6.016306298
-6.476198721
-6.473569856
-6.134707422
-6.141181701
-6.401148666
-6.259134653
-6.127017058
-6.24674502
-6.507531606
-6.482155467
-6.540507508
-6.132842447
-6.202617393
-6.036152703
-6.238943827
-5.972191529
-5.967318629
-6.420510063
-6.488885669
-6.333959082
-6.099910685
-6.553045402
-6.032210688
-6.005588386
-6.090906057
-6.192839934
-6.042562136
-5.999954191
-6.24950211
-6.135949775
-6.068616487
-6.433890072
-6.151314082
-6.055833748
-6.352563684
-6.353889419
-6.21081974
-6.038820363
-5.975474237
-5.803378503
-5.443156551
-5.317787469
-5.397334948
-5.606189918
-5.691022436
-5.415044172
-5.21722965
-5.178064798
-5.138686987
-5.165845766
-5.219579292
-5.175584234
-5.61975604
-6.357820022
-6.695132825
-6.853118297
-7.17232835
-6.849399835
-7.114388455
-7.055221681
-7.432229061
-7.003105896
-7.176329999
-7.084052009
-7.408781496
-7.620651263
-7.216142612
-7.28220608
-7.282300862
-7.651334966
-7.333184106
-7.216103977
-7.203371347
-6.831029084
-6.680402389
-6.951980511
-6.412128452
-6.408878398
-6.568499234
-6.637184578
-6.587817798
-6.109197048
-6.564974358
-6.196357108
-6.417065967
-6.105984466
-6.470615017
-6.217740036
-6.143028969
-5.994037536
-6.265991087
-6.396642783
-5.992138879
-6.530083361
-6.263074333
-6.31554298
-6.265964437
-6.229535346
-6.580081448
-5.990051332
-6.238339062
-6.332013462
-6.056498023
-6.402893127
-6.65019643
-6.59720497
-6.212080307
-6.418746433
-6.671730747
-6.5903633
-6.296554922
-6.615424247
-6.276206162
-6.622602298
-6.282801795
-6.551396225
-6.453480322
-6.543540985
-6.490473571
-6.611650702
-6.749572829
-6.32784352
-6.588142119
-6.63038179
-6.869029854
-6.855007444
-6.824136155
-6.45678007
-6.634547557
-6.5010868
-6.770174606
-7.024139034
-6.825501006
-6.729369307
-6.883024063
-6.423463978
-6.569124291
-6.859594629
-6.793295924
-6.638291344
-6.688398315
-6.570740737
-6.767581729
-6.313746695
-6.692469516
-6.23985768
-6.521670295
-6.395462329
-6.190416929
-6.470429391
-6.090543531
-6.194391596
-6.276726845
-6.609824367
-6.27595848
-6.498795852
-6.303405148
-6.408415649
-6.315826704
-6.149360424
-6.516020609
-6.013651409
-6.359284764
-6.347102166
-6.026356934
-6.184278714
-6.227573025
-6.026638889
-6.009066973
-5.941620207
-6.224770295
-5.919736238
-6.476967608
-6.208165657
-6.074249315
-5.975000526
-6.483254585
-6.092424963
-6.002670276
-6.215304658
-6.412046114
-6.377874509
-6.347587615
-6.401531306
-6.408170982
-6.292449864
-6.238258848
-6.384020239
-6.438730301
-6.288346759
-6.081418995
-6.029679308
-6.021659263
-6.450740327
-6.195728818
-6.331940827
-6.011329019
-6.349898435
-6.180067836
-6.506141857
-6.012584292
-6.538017999
-6.363891814
-6.506388769
-6.207964277
-6.414490191
-6.240385687
-6.409116203
-6.132783487
-6.291194516
-6.32444445
-6.016460189
-6.145843024
-6.286439838
-6.520805418
-6.118116956
-6.146629605
-6.060469555
-6.029703633
-6.061363752
-6.375227654
-5.989526124
-6.352750439
-6.517177713
-6.236358884
-6.241741058
-6.273942179
-6.327768784
-6.036971332
-5.997992498
-6.258712982
-6.238247374
-6.429980532
-6.322166137
-6.395116489
-6.320443046
-6.193737153
-6.525715039
-6.200840833
-6.558242486
-5.9835338
-6.21949649
-6.335627426
-6.195642847
-6.358810702
-5.99330908
-6.05525059
-6.071194869
-6.417478992
-6.310455691
-6.447774591
-6.010358441
-6.293675156
-5.93378014
-6.013069121
-5.947554983
-6.440232323
-6.359932882
-6.422707002
-6.409444619
-5.862384629
-6.084486759
-6.143906119
-5.812770633
-6.028603493
-5.76477679
-5.92796254
-6.080360942
-6.143595461
-6.32781858
-6.366374405
-5.977782591
-6.407092739
-6.235242635
-6.045967103
-5.945413514
-6.009798055
-5.87850121
-6.309930668
-6.333670356
-5.884439765
-6.365826622
-5.926504639
-6.391458758
-6.480075813
-6.167909495
-6.277280423
-6.296716788
-6.003304391
-6.215004904
-6.319130853
-6.056818315
-6.097036516
-6.528257733
-6.305268121
-6.529938084
-6.07178597
-6.09003378
-6.62824024
-6.509670557
-6.597922604
-6.463865126
-6.549902897
-6.22870871
-6.16551063
-6.405339604
-6.408020844
-6.17908969
-6.288822122
-6.496550047
-6.526322447
-6.595316105
-6.135930924
-6.583950309
-6.551330451
-6.395367898
-6.389481292
-6.391594262
-6.384765673
-6.021338697
-6.107978728
-6.251463218
-6.343700976
-6.537603607
-6.099056102
-6.591412167
-5.985168368
-6.346097443
-6.259060556
-6.048668697
-5.848910735
-5.863686027
-5.562294147
-5.259697009
-5.51005138
-5.756547846
-5.752227009
-5.528894017
-5.097167614
-5.412127756
-5.054348641
-4.735785251
-4.985715372
-5.005382781
-5.461150378
-5.903294064
-6.271683079
-6.588525618
-7.259014617
-7.134042884
-7.114883747
-7.415106449
-7.763842898
-7.446625353
-7.810855825
-7.726189675
-7.766160883
-7.372526785
-7.219211394
-7.371381995
-7.512006187
-7.361433374
-7.542343389
-7.065302634
-7.560774584
-7.240207816
-7.010601537
-6.789187466
-6.998457587
-6.542985429
-6.509548539
-6.594019756
-6.438822065
-6.297208949
-6.259037229
-6.419019764
-6.649150681
-6.609043772
-6.523330597
-6.363754292
-6.370235913
-6.162339917
-6.605942995
-6.57387941
-6.562374824
-6.139586112
-6.131520184
-6.322306093
-6.122242672
-6.177719948
-6.322416439
-6.526423716
-6.184654382
-6.403603506
-6.699228541
-6.229978558
-6.464648024
-6.481068549
-6.507375041
-6.685671262
-6.29281922
-6.623416764
-6.176993208
-6.651489943
-6.394127317
-6.283590369
-6.490103196
-6.683296472
-6.738058093
-6.472680598
-6.667283353
-6.546111566
-6.869464116
-6.568416188
-6.728644587
-6.590474363
-6.671640912
-6.830390179
-6.484824322
-6.725065131
-6.360546425
-6.364408098
-6.657782797
-6.88103969
-6.466221466
-6.586842968
-6.921969992
-6.465437459
-6.81202115
-6.486103204
-6.8311364
-6.499717832
-6.63146274
-6.529568509
-6.589779998
-6.771691444
-6.452993861
-6.471755101
-6.557485792
-6.344280307
-6.262088013
-6.423656307
-6.389833899
-6.529088916
-6.504077027
-6.232711895
-6.32012557
-6.272282787
-6.464824216
-6.332026189
-6.572273205
-6.141512662
-6.198085279
-6.11479059
-6.478058211
-6.352847998
-6.430368769
-6.239130683
-6.512050017
-6.304581694
-6.073745999
-6.440486904
-6.232484439
-6.2675111
-5.968424447
-6.144217453
-6.11533857
-6.03294738
-6.500599103
-5.950943835
-6.20274161
-6.141834406
-6.187019369
-6.454880076
-5.988611438
-6.517679138
-6.284482946
-6.079812323
-6.275817406
-6.217552392
-6.431106868
-6.515187809
-6.009193771
-6.077402979
-6.157943976
-6.359516582
-6.08095688
-6.410338689
-6.26677441
-6.126188476
-5.990096008
-6.152248758
-6.114825339
-5.976404935
-6.156057628
-6.315825514
-6.261786175
-6.43221643
-6.328687862
-6.15892044
-6.458100921
-6.498183013
-6.200273731
-6.141922927
-6.515531541
-6.335718803
-6.194376816
-6.464159686
-6.222348028
-6.156580091
-6.444676061
-6.561395949
-6.008870452
-6.106259733
-6.222841617
-6.480479372
-6.221041256
-6.060364502
-5.952185972
-6.1490903
-6.455554421
-6.032269843
-6.062610218
-6.369135826
-6.254687962
-5.953351039
-6.400159154
-6.316528366
-6.393481945
-6.147412335
-6.474289159
-5.913278743
-6.381747288
-5.957065601
-6.154881966
-6.148739519
-6.132732815
-6.265520085
-6.053478326
-6.133876133
-6.353159529
-6.180358114
-6.431895449
-5.889177479
-6.161743289
-6.238062819
-6.374385087
-6.386214825
-6.322077664
-5.971724882
-6.125052975
-5.985904105
-5.846728329
-6.02451504
-5.944554851
-6.081881652
-6.107760873
-6.294275535
-5.871990503
-6.177748721
-6.311886783
-6.343230522
-5.761260939
-5.920533442
-5.979776881
-5.746506735
-6.280961783
-5.960580449
-6.197295342
-6.137443762
-5.892286835
-5.852113926
-6.074845504
-6.333827457
-6.221101607
-6.210164506
-6.344269713
-5.792814984
-6.343923016
-5.959578008
-5.873936847
-6.028308874
-6.400363104
-6.28813599
-6.32657356
-6.403555195
-6.407928963
-6.326042519
-6.139365987
-6.253969325
-6.565376277
-6.510506751
-6.458683372
-6.378940836
-6.368211791
-6.1029023
-6.304211647
-6.146951297
-6.544742508
-6.260257228
-6.117089328
-6.081017261
-6.332747772
-6.165348714
-6.218079463
-6.458131824
-6.402592676
-6.349147651
-6.551014329
-6.431429263
-6.637560888
-6.175068403
-6.094547465
-6.316093959
-6.02039747
-6.171301268
-6.093594518
-6.150636611
-6.088190927
-6.547315468
-6.119742243
-6.652046448
-6.336915742
-6.442420184
-6.047952085
-5.92760587
-5.6647856
-5.603355984
-5.413119238
-5.591823306
-5.65240208
-5.659321069
-5.313473826
-5.408832783
-5.538467309
-5.065364249
-4.913573918
-5.074658419
-4.928100669
-5.053976813
-5.676817133
-6.051544468
-6.358055215
-7.101245451
-6.775385789
-7.531026351
-7.207080412
-7.521483635
-7.216447872
-7.189377307
-7.135667325
-7.545425019
-7.385342725
-7.724254813
-7.357001572
-7.488491386
-7.531336599
-7.195023734
-7.570985783
-7.454063963
-7.005718062
-7.135593748
-7.192513945
-6.58011111
-6.389515622
-6.297873574
-6.44335467
-6.551533285
-6.429942632
-6.550657831
-6.613418735
-6.457120746
-6.429007181
-6.358234331
-6.120765053
-6.51800854
-6.285015614
-6.131870083
-6.188246404
-6.44308585
-6.635198881
-6.211144174
-6.562130784
-6.629151844
-6.617512311
-6.405687456
-6.60445332
-6.173892314
-6.533504329
-6.5802965
-6.691359039
-6.451123638
-6.710800207
-6.516190654
-6.633285972
-6.708046606
-6.362136869
-6.751081197
-6.509641411
-6.27598553
-6.269860893
-6.313619111
-6.310368806
-6.495590184
-6.515542858
-6.386502681
-6.492162373
-6.387553026
-6.542940986
-6.42320574
-6.29575921
-6.350086668
-6.629400204
-6.498713504
-6.757739662
-6.832671297
-6.868538228
-6.478233843
-6.910956004
-6.736046061
-6.884499554
-6.830776796
-6.370357333
-6.603169374
-6.339160514
-6.63241845
-6.567276533
-6.489362584
-6.625171067
-6.843182432
-6.574487908
-6.30487854
-6.460900831
-6.666739056
-6.239510866
-6.533756612
-6.417405489
-6.338343187
-6.478652787
-6.639355686
-6.228923738
-6.534450437
-6.145139006
-6.13524197
-6.30681142
-6.332145357
-6.45606298
-6.217699572
-6.533929297
-6.118253789
-6.431450294
-6.273066326
-6.118228832
-6.294665033
-5.928569145
-6.250801539
-5.940639327
-6.296964564
-6.159350719
-6.296265842
-6.129622464
-6.086931402
-6.024064778
-6.038607627
-6.310153677
-6.137054638
-6.131203626
-6.226375134
-6.269402459
-6.222026977
-6.254006791
-6.307817327
-5.883951057
-6.27286362
-6.205586256
-6.104320147
-6.206847679
-5.987639153
-6.369365011
-6.328842129
-5.921618017
-5.968242216
-6.42395894
-5.894269255
-5.942357152
-6.367285177
-6.237054395
-5.949204697
-6.007923394
-6.451348197
-6.457943122
-6.177807239
-6.159595951
-5.980154432
-6.272169331
-6.104222568
-6.115823408
-6.040450185
-6.541884354
-6.06103942
-6.215325436
-6.354029713
-6.272646571
-6.180248805
-6.117080841
-6.250375222
-6.494457548
-6.045667781
-6.516022717
-6.130804546
-6.447235115
-6.288935731
-6.128485364
-6.001833881
-6.049284906
-6.538957499
-6.281687469
-6.482155723
-6.173800585
-6.484030087
-5.989629614
-6.571721485
-6.568622907
-6.254559275
-6.050509044
-6.125358973
-6.216024916
-6.388592384
-6.328969589
-6.589776932
-6.184827197
-6.07008707
-6.02403169
-6.089274847
-6.098812213
-6.536072508
-6.403534564
-6.180563145
-6.529273264
-6.156796698
-6.345682388
-6.171443001
-6.18665552
-6.036782039
-6.274489597
-6.174128389
-6.466285853
-6.222851984
-6.444789111
-6.332205315
-5.977717242
-6.412829925
-6.009863546
-5.90968931
-5.859063605
-5.933668895
-5.901246954
-6.349322296
-6.150558218
-5.993887403
-6.267484476
-6.025879117
-6.291019059
-6.027740066
-6.204890102
-5.883680784
-6.186816342
-6.310603485
-6.180552664
-5.824010098
-6.053793363
-5.989232651
-5.970603717
-5.893972917
-5.919896474
-5.906423822
-6.31894519
-6.27992989
-6.138061466
-5.991638009
-6.512471483
-6.255830751
-6.362955781
-6.130561839
-6.553793675
-6.050291818
-6.21289492
-6.222930939
-6.258247901
-6.371460432
-6.333291559
-6.335808099
-6.57475347
-6.273529032
-6.464919658
-6.235069355
-6.179640077
-6.438762856
-6.554994355
-6.079544636
-6.148127746
-6.311283125
-6.415434192
-6.485732718
-6.232713897
-6.093196919
-6.088542361
-6.559601247
-6.381311902
-6.558775192
-6.177130802
-6.251296116
-6.034312537
-6.406176149
-6.28786192
-6.149283251
-6.131911194
-6.408339118
-6.457746256
-6.423600083
-6.186536789
-6.489713878
-6.456346905
-5.907917537
-5.8598923
-5.755136634
-5.442532715
-5.71509878
-5.675145417
-5.687151154
-5.729459676
-5.816882342
-5.354414407
-5.562939943
-5.497109483
-5.050103721
-4.808369482
-4.909841775
-5.030995487
-5.228599876
-5.587476529
-5.991983479
-6.776824676
-7.188375563
-7.141012559
-7.287832048
-7.462037957
-7.365073755
-7.658072542
-7.712649949
-7.518135811
-7.621833396
-7.771791065
-7.327431595
-7.423439962
-7.240203484
-7.775494974
-7.709573572
-7.276582813
-7.239935694
-6.969379814
-7.321495758
-6.98168673
-6.793136918
-6.701126714
-6.626009747
-6.527554127
-6.134696645
-6.739097447
-6.570006327
-6.269992038
-6.512442895
-6.453756441
-6.680012778
-6.6401207
-6.29692057
-6.445708699
-6.176740816
-6.287419532
-6.58667912
-6.124223575
-6.467371094
-6.697268052
-6.467084284
-6.386256307
-6.390151567
-6.294242477
-6.690354369
-6.137392858
-6.284803983
-6.523132491
-6.69402478
-6.182614193
-6.441769121
-6.207548392
-6.73792741
-6.356463077
-6.382820696
-6.385129526
-6.3107919
-6.309473644
-6.248244122
-6.32958266
-6.639149494
-6.891932046
-6.394936597
-6.363685644
-6.649202065
-6.454385248
-6.50673782
-6.882298749
-6.442691173
-6.322457302
-6.573045689
-6.492022184
-6.528750637
-6.666805491
-6.676722076
-6.84795137
-6.593316153
-6.797117556
-6.321771093
-6.612762818
-6.709955885
-6.669073537
-6.745243324
-6.580612237
-6.639131656
-6.696074104
-6.851082037
-6.251031687
-6.802339697
-6.215756446
-6.433908236
-6.626978854
-6.223628948
-6.20652376
-6.161569684
-6.682018283
-6.273331748
-6.550381984
-6.561137915
-6.438252074
-6.4027455
-6.071532164
-6.206173809
-6.29787136
-6.401112018
-6.272850772
-6.449265543
-6.566203102
-6.574488375
-6.175128549
-6.481444803
-6.175435091
-6.307971648
-6.515318994
-6.123233506
-6.47118632
-6.507678522
-6.426808642
-6.312306765
-6.233062151
-6.563498614
-6.162692205
-6.284808638
-6.264004608
-6.486650482
-6.519326841
-6.01909984
-6.462552872
-6.337987412
-6.20233075
-6.510197367
-6.384877283
-6.410261368
-6.343916412
-6.508250664
-6.178762339
-6.446962606
-6.239737453
-6.397248656
-6.568513421
-6.215781652
-6.558476698
-6.07419269
-6.159066138
-6.046154633
-6.147260603
-6.506489448
-6.563700029
-6.577397094
-6.516335893
-6.468975429
-6.135805474
-6.033398157
-6.031286285
-6.423164022
-6.029198904
-6.099199787
-6.323888237
-6.058011144
-6.128290939
-6.47773217
-6.026483615
-6.066067689
-6.304429546
-6.282835919
-6.51915798
-6.100751297
-6.233414095
-6.414029932
-6.400217461
-6.555717561
-6.220871531
-6.492420852
-6.089303896
-6.441075382
-6.035379514
-6.181497851
-6.302385689
-6.384219907
-6.502053082
-6.461470105
-6.289584371
-6.578618448
-6.254444524
-6.569254073
-6.050548043
-6.531818227
-6.510733846
-6.320952264
-6.257585069
-6.417825
-6.107486923
-6.106257237
-6.20741938
-6.301331085
-6.344887417
-6.227767211
-6.236218342
-6.11109014
-6.129551252
-6.406775137
-6.360847054
-5.949129269
-6.238401897
-6.157032903
-6.417203038
-6.013251513
-6.435777836
-6.263649545
-6.237033413
-5.865482046
-6.141436715
-6.014365772
-6.063152897
-6.277549384
-6.153537842
-6.340347997
-6.024814681
-6.052505591
-6.014597624
-5.92750876
-5.905874861
-6.368632059
-6.054452557
-5.953955138
-5.867561931
-6.026417831
-5.92229221
-6.223213244
-5.995462759
-6.264609057
-6.109116276
-6.334455145
-6.143235685
-6.177862264
-6.096352544
-6.284592061
-6.136577148
-6.099130081
-6.487004781
-6.348023881
-6.52276154
-6.601257758
-6.594783703
-6.200392164
-6.569649358
-6.288331851
-6.132399325
-6.281536971
-6.429435463
-6.397418482
-6.345533731
-6.124641818
-6.082456949
-6.164556454
-6.438286331
-6.13370474
-6.208793617
-6.467966767
-6.250785781
-6.466492689
-6.594078314
-6.158746269
-6.172251927
-6.597399823
-6.385729724
-6.219345786
-6.544130512
-6.260030004
-6.185387036
-6.482373587
-6.353808526
-6.085020342
-5.797611813
-6.017856171
-5.929853625
-5.683304872
-5.594427534
-5.797371031
-5.710931968
-5.45941573
-5.50962621
-5.672904289
-5.108092037
-5.105645876
-4.847133143
-5.205290376
-5.483921122
-6.008897369
-6.150074055
-6.772702936
-6.688215618
-7.019747437
-7.26979163
-7.414578571
-7.047418687
-7.3066852
-7.250892124
-7.399297493
-7.096139479
-7.628736791
-7.373517247
-7.134060503
-7.078256439
-7.691885358
-7.618407228
-7.341358988
-7.55904391
-7.033090637
-6.947126292
-7.012151463
-6.445429216
-6.629464332
-6.236174241
-6.31498103
-6.486827784
-6.620108385
-6.701600951
-6.164604971
-6.117801438
-6.290336664
-6.073584669
-6.370542368
-6.542525275
-6.658874603
-6.342108842
-6.374004772
-6.232074513
-6.286824279
-6.175806682
-6.137986623
-6.410187667
-6.101583562
-6.188183952
-6.125755388
-6.448274673
-6.371620802
-6.460440969
-6.48829499
-6.166464622
-6.390614042
-6.50944581
-6.714608867
-6.557807174
-6.620515439
-6.404859637
-6.479230587
-6.466974397
-6.633254322
-6.729928807
-6.348574841
-6.258815292
-6.338249714
-6.393877387
-6.559457231
-6.286097526
-6.682283816
-6.340143334
-6.381144888
-6.836056857
-6.834812551
-6.671628061
-6.658515262
-6.610307582
-6.817569682
-6.810903817
-6.683624572
-6.480702857
-6.894925827
-6.311461993
-6.638105648
-6.769724845
-6.621351543
-6.746923732
-6.423154464
-6.758736592
-6.644068076
-6.339883224
-6.258735032
-6.235471623
-6.221009195
-6.656844632
-6.748581738
-6.587702581
-6.746590107
-6.607673076
-6.568081054
-6.703336555
-6.362739587
-6.654635712
-6.49181351
-6.275813677
-6.249595531
-6.082659139
-6.359363785
-6.553584674
-6.384908019
-6.057944808
-6.272881139
-6.460575168
-6.132148774
-6.465356541
-5.960162664
-6.104754073
-5.937568604
-6.267884573
-6.046252234
-6.416999394
-6.467885067
-6.064818694
-6.304315435
-6.252315004
-6.167736971
-6.094078499
-6.181834218
-5.938754165
-6.212257315
-6.346760566
-6.193621577
-5.973509224
-6.336446024
-6.527699691
-5.994672324
-6.246641795
-6.308936782
-5.97351145
-6.529882258
-6.001658888
-5.9583885
-6.124791991
-6.514683356
-6.337544427
-6.216893678
-6.15399072
-6.476217855
-6.31923501
-6.050790339
-6.021368907
-6.481008002
-6.57257249
-6.518926287
-6.232976028
-6.500022449
-6.423161545
-6.079383157
-6.00939215
-6.420330082
-6.66064558
-6.609610798
-6.585582306
-6.309041244
-6.047663206
-6.368434287
-6.209716938
-6.202859096
-6.494874534
-6.378856689
-6.336109472
-6.574984572
-6.434240149
-6.16169834
-6.322882509
-6.269632039
-6.349108616
-6.50892148
-6.29305731
-6.591660186
-6.435951948
-6.501735945
-6.144048018
-6.621685225
-6.046523078
-6.51296195
-6.153195865
-6.55330144
-6.427080939
-6.041392331
-6.192601123
-6.020024848
-6.263454582
-6.556129124
-6.16619488
-6.103431328
-6.390632921
-6.157182014
-5.95739868
-6.279486892
-6.461174037
-5.977055571
-6.097778293
-6.24496646
-6.13291672
-6.371556371
-5.946683534
-5.929119681
-6.263200659
-6.264844901
-5.935052525
-5.92945126
-5.865549391
-6.025759447
-6.131225339
-6.023796525
-6.298690985
-6.009658266
-6.235403647
-6.087389553
-6.336813921
-6.397907917
-6.30004394
-6.008921315
-6.066238287
-6.486354982
-6.439106765
-6.632735791
-6.504142188
-6.534476889
-6.13224339
-6.334634831
-6.416868519
-6.546992795
-6.542014846
-6.579734537
-6.552891856
-6.644198925
-6.379462074
-6.576618258
-6.463597931
-6.504467429
-6.191696499
-6.564273981
-6.647186238
-6.194400267
-6.393363398
-6.223208794
-6.249278246
-6.400837773
-6.28713128
-6.276144487
-6.381213446
-6.559964688
-6.252471112
-6.44034655
-6.409786658
-6.719636297
-6.460700936
-6.501772645
-6.525264202
-6.297380093
-6.182453004
-6.54102722
-6.593600443
-6.257998282
-6.692169854
-6.314520543
-6.334766066
-6.447735427
-6.363832817
-6.391676619
-6.267586101
-6.134128606
-6.042309572
-6.348293776
-6.139590255
-5.871459171
-6.048478168
-6.074610386
-5.781080453
-5.89988205
-5.818559446
-5.44927403
-5.202517123
-5.23447821
-5.349181265
-5.625190086
-5.649139696
-6.182294129
-6.439712679
-6.988927326
-6.779405805
-6.839106286
-7.235090133
-7.413873272
-7.527027936
-7.230270693
-7.267900592
-7.323403597
-7.746835263
-7.389459764
-7.296142777
-7.58856388
-7.594435398
-7.366435482
-7.354520102
-7.005866891
-7.349508273
-7.179123115
-7.203617852
-6.604621873
-6.999224068
-6.646000245
-6.308512178
-6.805838109
-6.780890733
-6.609307614
-6.400680487
-6.611955968
-6.224165431
-6.51765412
-6.202152806
-6.448584538
-6.751801931
-6.268758335
-6.263927579
-6.581585822
-6.268560215
-6.342930243
-6.750629964
-6.442899184
-6.349449693
-6.200890929
-6.665246826
-6.548779818
-6.708896155
-6.360848435
-6.436980226
-6.485756677
-6.531897479
-6.353946087
-6.60013064
-6.63250954
-6.703896377
-6.88669674
-6.903986274
-6.535629374
-6.897033679
-6.539035623
-6.70458461
-6.546257315
-6.528598562
-6.966321767
-6.811151111
-6.430976122
-6.694412104
-6.517589591
-6.808708801
-6.723396209
-6.692857878
-6.927353407
-6.409452797
-6.709752583
-6.504058498
-7.039683423
-6.927875568
-6.840763611
-6.772809246
-6.597297911
-6.817030277
-6.531547325
-6.39753036
-6.759774526
-6.879357532
-6.520117468
-6.549070658
-6.811998191
-6.904602237
-6.381150799
-6.786916348
-6.6859283
-6.755126557
-6.448413246
-6.371540173
-6.457386263
-6.271513102
-6.597029192
-6.411628153
-6.397861381
-6.269549383
-6.688690943
-6.583871931
-6.697388807
-6.451269585
-6.621758426
-6.658418206
-6.539467022
-6.470730554
-6.398920197
-6.318975638
-6.552837528
-6.199941596
-6.513010765
-6.235418393
-6.082871976
-6.172300278
-6.162041888
-6.182970813
-6.34782707
-6.40496369
-6.374350506
-6.368744542
-6.296496665
-6.640069986
-6.613949586
-6.114358571
-6.197110323
-6.365393073
-6.248926149
-6.389990027
-6.4319763
-6.265448476
-6.177040286
-6.528260687
-6.483427343
-6.685645154
-6.184822978
-6.277009766
-6.228622119
-6.661486444
-6.276618437
-6.275166064
-6.515596852
-6.7872059
-6.309799811
-6.650418947
-6.243265733
-6.183322392
-6.66121706
-6.514523263
-6.203744126
-6.764274723
-6.56900438
-6.394830748
-6.621415359
-6.581085257
-6.411949714
-6.160149348
-6.398758736
-6.32011128
-6.499756344
-6.615716346
-6.343948307
-6.704115738
-6.399523024
-6.394858826
-6.291897693
-6.724398358
-6.401607003
-6.548575416
-6.169918145
-6.302353062
-6.339045797
-6.768847121
-6.469240716
-6.18274451
-6.582251119
-6.472517307
-6.577460477
-6.304916329
-6.403650871
-6.459937994
-6.505730382
-6.203068053
-6.516218054
-6.207231901
-6.2806077
-6.502486937
-6.315150406
-6.53850679
-6.831559636
-6.370786136
-6.390696731
-6.802671371
-6.581858674
-6.312281842
-6.574655097
-6.710838377
-6.261382198
-6.191369403
-6.283533349
-6.520971444
-6.658427472
-6.352682514
-6.835791515
-6.635665201
-6.439155891
-6.774995331
-6.720808627
-6.695562986
-6.443891322
-6.241764368
-6.641317577
-6.303321016
-6.469769408
-6.796339526
-6.36215302
-6.681164333
-6.417225855
-6.619833597
-6.653974994
-6.313633152
-6.331064983
-6.311845509
-6.248024115
-6.238344315
-6.107946729
-6.537020977
-6.317006091
-6.332566727
-6.342025643
-6.184992817
-6.316051602
-6.58162955
-6.707781194
-6.687741827
-6.355459322
-6.17476023
-6.183115117
-6.619329245
-6.397569021
-6.140819538
-6.526004745
-6.282527428
-6.35465383
-6.333019503
-6.583324485
-6.247114698
-6.230486671
-6.74512784
-6.484595517
-6.410773072
-6.358972421
-6.469112955
-6.791600501
-6.434708378
-6.617093091
-6.421741515
-6.740233691
-6.925757673
-6.774199196
-6.371246546
-6.487218992
-6.345816158
-6.957142842
-6.79739677
-6.834437646
-6.852107191
-6.99167263
-6.698141522
-6.794514275
-6.328745673
-6.650559025
-6.833779132
-6.642603142
-6.82847477
-6.591909183
-6.943881383
-6.92987716
-6.713553326
-6.695090099
-6.686029843
-6.591025027
-6.872265414
-6.39889052
-6.822516126
-6.596396628
-6.629327963
-6.734912359
-6.575751151
-6.847520114
-6.796662093
-6.111458327
-6.480219475
-6.028359385
-5.77552969
-6.06933241
-5.947072068
-6.190951166
-5.760018634
-6.017943206
-5.573645939
-5.753037382
-5.700541099
-5.084687594
-5.093045135
-5.196099752
-5.649355067
-6.401650082
-6.779699984
-7.180574839
-7.487067043
-7.737705921
-7.305650877
-7.904981913
-7.847296115
-7.857851705
-7.36409372
-7.67761195
-7.421534038
-7.767216121
-7.446845348
-7.423053912
-7.811175257
-7.529748444
-7.658313881
-7.800858214
-7.593754176
-7.628902062
-6.975304282
-6.895548829
-6.715738344
-6.771819604
-6.773533462
-6.544854347
-7.027392976
-6.553405713
-6.9104946
-6.726910198
-6.731834127
-6.45491889
-7.014546212
-6.517469199
-6.439842537
-6.43690724
-6.928587524
-6.682074118
-6.596260729
-6.947653563
-6.739702775
-6.900034432
-7.078037561
-6.970100449
-6.600513302
-6.817457044
-6.572213091
-6.522755372
-6.870224285
-6.861280025
-7.048286918
-6.716514474
-6.788054049
-6.832195942
-7.146707652
-7.098057323
-7.130074489
-6.655942956
-6.68219343
-6.866479063
-7.107669417
-7.004376407
-6.816244383
-7.047322287
-7.096234219
-6.797481623
-7.303402842
-7.094465337
-7.216832192
-6.955315791
-6.971608877
-6.704902627
-7.111459908
-6.877420536
-7.021368331
-7.158546425
-6.676133258
-6.740244983
-6.751635335
-7.083779515
-7.097214021
-6.952073987
-7.112583031
-6.720560259
-6.747973215
-7.224714627
-6.853556448
-6.90613174
-6.861820367
-7.211245016
-7.120254377
-7.126315477
-7.125414525
-6.639637704
-6.826608046
-6.87358072
-6.474580817
-7.094382114
-6.879065046
-6.750995069
-7.040396468
-6.52246706
-6.87554222
-6.794086805
-6.611602157
-6.788573561
-6.776382013
-6.557640745
-6.303033237
-6.631687108
-6.624901111
-6.392068014
-6.540267281
-6.536134867
-6.567476666
-6.423650069
-6.511722756
-6.844821749
-6.882872902
-6.745483417
-6.867629436
-6.746364899
-6.69174015
-6.606155348
-6.357949016
-6.625289225
-6.563275066
-6.612292881
-6.386704284
-6.456067187
-6.827449601
-6.463236501
-6.363822874
-6.583603698
-6.666063673
-6.813551047
-6.467414934
-6.678321875
-6.608527706
-6.567139133
-6.355165851
-6.823625507
-6.344267036
-6.525885595
-6.706526406
-6.671112281
-6.856606709
-6.400282151
-6.654929712
-6.945952756
-6.866988327
-6.445174962
-6.523076783
-6.342235146
-6.605139549
-6.438759243
-6.518097559
-6.849341714
-6.858138008
-6.753407083
-6.973450365
-6.51423074
-6.679880105
-6.622363245
-6.682464913
-6.753329364
-6.534067555
-6.381570724
-6.349746576
-6.284588912
-6.578898192
-6.775056296
-6.61664336
-6.414627473
-6.766851567
-6.584532352
-6.387599991
-6.484877025
-6.750558812
-6.380723786
-6.375551549
-6.874896209
-6.657738597
-6.499296728
-6.885826032
-6.529863188
-6.593873539
-6.660897709
-6.599000265
-6.517485513
-6.737676304
-6.684964865
-6.738258381
-6.432757357
-6.832722804
-6.826792128
-6.886692603
-6.323645134
-6.837136418
-6.425486035
-6.8036324
-6.817309837
-6.864196119
-6.511023775
-6.825454266
-6.7454929
-6.413873424
-6.694541688
-6.863825071
-6.351184534
-6.366870705
-6.857665581
-6.51796568
-6.288275553
-6.576264141
-6.721375264
-6.48077302
-6.612897346
-6.89761943
-6.722383673
-6.507239217
-6.732276644
-6.436070142
-6.807435164
-6.440553272
-6.560692104
-6.45678853
-6.46240844
-6.443237889
-6.656349942
